Time(s),Optitrack Position(m)[x,y,z],Optitrack Quaternion[x,y,z,w],Linear velocity, Angular velocity, IMU Quaternion[x,y,z,w],IMU Linear Acceleration (m/s2)[bx,by,bz],Control input[u1,u2,u3,u4] 
0,-0.22639,-0.86294,0.12405,0.059848,0.019277,-0.65311,0.75464,0.010317,0.0068798,0.00015011,-0.018994,0.0080883,0.037908,0,0.059831,0.019305,-0.65314,0.75462,-1.4138,0.9638,10.357,1340,1200,1288.7,1250.3,0,0,0,0
0.01,-0.2264,-0.86293,0.12402,0.059876,0.01927,-0.65315,0.75461,0.010287,0.0067801,-0.00042471,-0.0074939,0.012337,0.028483,0,0.059822,0.019319,-0.65318,0.75459,-1.5175,-0.032772,10.306,1340,1200,1290,1249,0,0,0,0
0.02,-0.22641,-0.86293,0.12398,0.059903,0.019264,-0.65318,0.75458,0.010219,0.0066817,-0.00098108,0.0036454,0.0165,0.018973,0,0.059857,0.019304,-0.65321,0.75456,-1.4933,-0.32253,10.169,1340,1200,1289.1,1249.9,0,0,0,0
0.03,-0.22642,-0.86292,0.12395,0.059928,0.019258,-0.65322,0.75455,0.010122,0.006588,-0.0014934,0.013907,0.020369,0.0099332,0,0.059925,0.019273,-0.65325,0.75452,-1.4115,-0.52311,9.8736,1340,1200,1287.2,1251.8,0,0,0,0
0.04,-0.22643,-0.86291,0.12391,0.059949,0.019252,-0.65324,0.75453,0.0099992,0.0065026,-0.0019359,0.022776,0.023736,0.0019172,0,0.059964,0.019256,-0.65326,0.75451,-1.2648,-0.60232,9.4294,1340,1200,1286,1253,0,0,0,0
0.05,-0.22644,-0.8629,0.12388,0.059965,0.019248,-0.65326,0.75451,0.0098576,0.0064292,-0.002283,0.029736,0.026394,-0.0045204,0,0.059879,0.019311,-0.65321,0.75456,-0.29654,0.43798,8.2832,1340,1200,1288,1251,0,0,0,0
0.06,-0.22645,-0.86289,0.12384,0.059976,0.019245,-0.65328,0.75449,0.0097027,0.0063712,-0.0025091,0.03427,0.028133,-0.0088252,0,0.059928,0.019287,-0.65325,0.75452,-0.64508,0.29117,9.223,1340,1200,1285.9,1253.1,0,0,0,0
0.07,-0.22647,-0.86288,0.12381,0.05998,0.019244,-0.65328,0.75449,0.0095402,0.0063322,-0.0025886,0.035863,0.028746,-0.010443,0,0.05998,0.019244,-0.65328,0.75449,-1.0149,0.1308,10.209,1340,1200,1283,1256,0,0,0,0
0.08,-0.22648,-0.86287,0.12377,0.059978,0.019244,-0.65328,0.75449,0.0093128,0.0063062,-0.002555,0.035202,0.028669,-0.010573,0,0.059975,0.019198,-0.65328,0.75449,-1.0139,0.52618,9.9085,1340,1200,1281.7,1257.3,0,0,0,0
0.09,-0.22649,-0.86286,0.12374,0.059973,0.019245,-0.65328,0.7545,0.008976,0.0062849,-0.0024627,0.033386,0.028447,-0.010691,0,0.059964,0.019169,-0.65328,0.75449,-1.0111,1.1461,9.4828,1340,1200,1281,1258,0,0,0,0
0.1,-0.22651,-0.86285,0.1237,0.059964,0.019245,-0.65327,0.7545,0.00855,0.0062673,-0.0023216,0.030607,0.028086,-0.010796,0,0.059905,0.019171,-0.6532,0.75457,-0.89569,1.6423,9.246,1340,1200,1282.7,1256.3,0,0,0,0
0.11,-0.22652,-0.86284,0.12367,0.059954,0.019245,-0.65326,0.75451,0.0080549,0.0062529,-0.0021412,0.027057,0.027592,-0.010891,0,0.059841,0.019174,-0.65312,0.75465,-0.77213,1.926,9.1265,1340,1200,1285,1254,0,0,0,0
0.12,-0.22654,-0.86283,0.12363,0.059942,0.019245,-0.65324,0.75453,0.0075109,0.0062407,-0.0019314,0.022927,0.026973,-0.010974,0,0.059822,0.019181,-0.65312,0.75465,-0.82095,1.8543,9.2482,1340,1200,1285.7,1253.3,0,0,0,0
0.13,-0.22656,-0.86282,0.1236,0.059928,0.019246,-0.65323,0.75454,0.0069379,0.0062301,-0.001702,0.018411,0.026234,-0.011047,0,0.059807,0.019193,-0.65312,0.75465,-0.94219,1.6643,9.5507,1340,1200,1286.1,1252.9,0,0,0,0
0.14,-0.22657,-0.86281,0.12356,0.059914,0.019246,-0.65321,0.75455,0.0063562,0.0062203,-0.0014626,0.013699,0.025382,-0.01111,0,0.059795,0.019207,-0.65312,0.75464,-1.0996,1.3918,9.9432,1340,1200,1286.4,1252.6,0,0,0,0
0.15,-0.22659,-0.8628,0.12352,0.0599,0.019246,-0.6532,0.75457,0.0057858,0.0062105,-0.0012231,0.0089834,0.024423,-0.011163,0,0.059787,0.019222,-0.65312,0.75464,-1.2568,1.0726,10.335,1340,1200,1287,1252,0,0,0,0
0.16,-0.22661,-0.86279,0.12349,0.059887,0.019247,-0.65318,0.75458,0.0052468,0.0062,-0.00099312,0.0044568,0.023364,-0.011207,0,0.059782,0.019234,-0.65313,0.75464,-1.3776,0.74222,10.637,1340,1200,1288.1,1250.9,0,0,0,0
0.17,-0.22662,-0.86277,0.12345,0.059875,0.019247,-0.65317,0.75459,0.0047593,0.0061881,-0.0007825,0.00031059,0.022212,-0.011242,0,0.05978,0.019242,-0.65313,0.75464,-1.4257,0.43651,10.757,1340,1200,1289,1250,0,0,0,0
0.18,-0.22664,-0.86276,0.12342,0.059864,0.019247,-0.65316,0.7546,0.0043435,0.0061738,-0.00060095,-0.0032631,0.020972,-0.011268,0,0.059808,0.019246,-0.65313,0.75463,-1.4017,0.054003,10.218,1340,1200,1288.9,1250.1,0,0,0,0
0.19,-0.22665,-0.86275,0.12339,0.059856,0.019247,-0.65315,0.75461,0.0040195,0.0061566,-0.00045823,-0.0060725,0.019651,-0.011287,0,0.059848,0.019248,-0.65314,0.75462,-1.3766,-0.19927,9.6515,1340,1200,1288.5,1250.5,0,0,0,0
0.2,-0.22667,-0.86273,0.12335,0.059851,0.019247,-0.65315,0.75462,0.0038073,0.0061356,-0.0003641,-0.0079256,0.018256,-0.011298,0,0.059865,0.019246,-0.65316,0.7546,-1.4006,-0.19315,9.6755,1340,1200,1288,1251,0,0,0,0
0.21,-0.22668,-0.86272,0.12332,0.059848,0.019248,-0.65314,0.75462,0.003727,0.0061101,-0.00032829,-0.0086304,0.016792,-0.011302,0,0.059878,0.019243,-0.6532,0.75457,-1.4615,-0.17119,9.7391,1340,1200,1287.6,1251.4,0,0,0,0
0.22,-0.22669,-0.8627,0.12329,0.059851,0.019243,-0.65315,0.75462,0.0039126,0.0060625,-0.00043977,-0.0077336,0.014333,-0.0097304,0,0.059889,0.019236,-0.65324,0.75453,-1.5351,-0.13208,9.816,1340,1200,1287.1,1251.9,0,0,0,0
0.23,-0.2267,-0.86269,0.12326,0.059856,0.019229,-0.65316,0.7546,0.0044271,0.0059812,-0.00074921,-0.0051626,0.010217,-0.0053794,0,0.059901,0.019227,-0.65327,0.7545,-1.5975,-0.074049,9.8811,1340,1200,1286.4,1252.6,0,0,0,0
0.24,-0.22671,-0.86267,0.12323,0.059865,0.019211,-0.65318,0.75459,0.0051412,0.0058812,-0.0011798,-0.0014124,0.0051779,0.00065954,0,0.059916,0.019215,-0.65329,0.75449,-1.6246,0.004661,9.9095,1340,1200,1285.4,1253.6,0,0,0,0
0.25,-0.22672,-0.86266,0.1232,0.059874,0.01919,-0.6532,0.75457,0.0059252,0.0057773,-0.0016546,0.0030208,-4.4194e-05,0.0072898,0,0.059946,0.019161,-0.65327,0.75451,-1.4985,0.63869,9.6064,1340,1200,1284,1255,0,0,0,0
0.26,-0.22673,-0.86264,0.12317,0.059884,0.019171,-0.65322,0.75455,0.0066495,0.0056842,-0.0020965,0.0076413,-0.0047115,0.013415,0,0.059967,0.019111,-0.65324,0.75453,-1.262,1.4861,9.2926,1340,1200,1280,1259,0,0,0,0
0.27,-0.22674,-0.86262,0.12314,0.059892,0.019157,-0.65323,0.75454,0.0071844,0.0056169,-0.0024284,0.011953,-0.0080857,0.017938,0,0.059943,0.01913,-0.65324,0.75453,-0.95684,1.9584,9.3313,1340,1200,1280.7,1258.3,0,0,0,0
0.28,-0.22676,-0.8626,0.12312,0.059897,0.019151,-0.65324,0.75453,0.0074002,0.0055901,-0.0025734,0.015459,-0.0094283,0.019764,0,0.059897,0.019151,-0.65324,0.75453,-0.75505,2.1942,9.4206,1340,1200,1282,1257,0,0,0,0
0.29,-0.22677,-0.86258,0.12309,0.0599,0.019152,-0.65324,0.75453,0.007324,0.0056109,-0.0025908,0.01845,-0.0090682,0.01867,0,0.05983,0.019154,-0.65319,0.75458,-0.83888,1.9289,9.6374,1340,1200,1283.9,1255.1,0,0,0,0
0.3,-0.22679,-0.86256,0.12306,0.059903,0.019152,-0.65324,0.75453,0.0071015,0.0056716,-0.0026066,0.02159,-0.0080167,0.01548,0,0.059782,0.019156,-0.65314,0.75463,-0.99237,1.4854,9.9094,1340,1200,1285.9,1253.1,0,0,0,0
0.31,-0.22681,-0.86254,0.12304,0.059906,0.019153,-0.65324,0.75453,0.0067578,0.0057655,-0.0026208,0.024819,-0.006392,0.010553,0,0.059784,0.019167,-0.65315,0.75462,-1.1622,1.142,10.123,1340,1200,1287.3,1251.7,0,0,0,0
0.32,-0.22683,-0.86252,0.12301,0.059909,0.019153,-0.65324,0.75453,0.0063177,0.0058857,-0.0026335,0.028075,-0.0043115,0.0042432,0,0.059791,0.019189,-0.65317,0.7546,-1.3681,0.79901,10.337,1340,1200,1288.6,1250.4,0,0,0,0
0.33,-0.22686,-0.8625,0.12299,0.059911,0.019154,-0.65324,0.75453,0.0058059,0.0060254,-0.0026447,0.031297,-0.0018925,-0.0030931,0,0.059798,0.019212,-0.65319,0.75459,-1.5443,0.48707,10.503,1340,1200,1289.6,1249.4,0,0,0,0
0.34,-0.22688,-0.86248,0.12297,0.059914,0.019156,-0.65324,0.75453,0.0052474,0.0061779,-0.0026546,0.034423,0.00074758,-0.0111,0,0.059801,0.019229,-0.6532,0.75458,-1.6253,0.23695,10.575,1340,1200,1290,1249,0,0,0,0
0.35,-0.22691,-0.86246,0.12294,0.059916,0.019157,-0.65324,0.75453,0.0046669,0.0063363,-0.0026631,0.037391,0.0034914,-0.019421,0,0.059782,0.019238,-0.65317,0.7546,-1.4299,0.078826,10.492,1340,1200,1289.8,1249.2,0,0,0,0
0.36,-0.22693,-0.86244,0.12292,0.059918,0.019159,-0.65324,0.75453,0.0040894,0.006494,-0.0026702,0.040141,0.0062216,-0.027702,0,0.05976,0.019242,-0.65314,0.75463,-1.2073,-0.083032,10.397,1340,1200,1289.3,1249.7,0,0,0,0
0.37,-0.22696,-0.86242,0.1229,0.059919,0.019161,-0.65324,0.75453,0.0035395,0.0066442,-0.0026761,0.04261,0.0088208,-0.035585,0,0.059827,0.019221,-0.65321,0.75456,-1.2762,-0.51287,10.46,1340,1200,1288.4,1250.6,0,0,0,0
0.38,-0.22698,-0.86239,0.12288,0.059921,0.019163,-0.65324,0.75453,0.0030422,0.00678,-0.0026808,0.044739,0.011172,-0.042714,0,0.059905,0.019191,-0.65329,0.75449,-1.3488,-0.84528,10.526,1340,1200,1286.6,1252.4,0,0,0,0
0.39,-0.22701,-0.86237,0.12286,0.059922,0.019165,-0.65324,0.75453,0.0026222,0.0068946,-0.0026843,0.046463,0.013157,-0.048735,0,0.059918,0.019178,-0.65327,0.75451,-0.98137,-0.19657,9.6088,1340,1200,1285,1254,0,0,0,0
0.4,-0.22703,-0.86235,0.12284,0.059923,0.019167,-0.65324,0.75453,0.0023044,0.0069814,-0.0026867,0.047724,0.014659,-0.05329,0,0.059923,0.019171,-0.65325,0.75453,-0.54012,0.60945,8.5148,1340,1200,1283.8,1255.2,0,0,0,0
0.41,-0.22705,-0.86232,0.12282,0.059923,0.019169,-0.65324,0.75453,0.0021137,0.0070335,-0.0026879,0.048458,0.01556,-0.056025,0,0.059923,0.019171,-0.65324,0.75454,-0.52716,0.68232,8.5015,1340,1200,1283,1256,0,0,0,0
0.42,-0.22707,-0.8623,0.1228,0.059923,0.019172,-0.65324,0.75453,0.0020707,0.0070444,-0.0026749,0.048328,0.015645,-0.056222,0,0.059923,0.019171,-0.65323,0.75454,-0.52209,0.71807,8.5152,1340,1200,1282.8,1256.2,0,0,0,0
0.43,-0.22708,-0.86227,0.12279,0.059915,0.019176,-0.65323,0.75454,0.0021084,0.0070188,-0.0024068,0.042314,0.013091,-0.047262,0,0.059922,0.019172,-0.65323,0.75454,-0.51811,0.7365,8.5419,1340,1200,1282.5,1256.5,0,0,0,0
0.44,-0.2271,-0.86225,0.12277,0.059899,0.019183,-0.65321,0.75456,0.0021918,0.0069657,-0.0018768,0.030429,0.0080441,-0.029556,0,0.05992,0.019172,-0.65323,0.75455,-0.51511,0.74632,8.5841,1340,1200,1282.3,1256.7,0,0,0,0
0.45,-0.22711,-0.86222,0.12276,0.059878,0.019191,-0.65318,0.75458,0.0023162,0.0068926,-0.0011946,0.015128,0.0015464,-0.0067616,0,0.059917,0.019173,-0.65322,0.75455,-0.51298,0.75621,8.6444,1340,1200,1282.2,1256.8,0,0,0,0
0.46,-0.22713,-0.86219,0.12275,0.059855,0.019199,-0.65315,0.75461,0.002477,0.0068071,-0.0004696,-0.0011325,-0.0053589,0.017463,0,0.059914,0.019175,-0.65322,0.75455,-0.51159,0.77485,8.7254,1340,1200,1282.1,1256.9,0,0,0,0
0.47,-0.22714,-0.86216,0.12274,0.059834,0.019208,-0.65313,0.75464,0.0026695,0.0067168,0.0001887,-0.015897,-0.011629,0.039458,0,0.059909,0.019177,-0.65321,0.75456,-0.51083,0.81095,8.8296,1340,1200,1282,1257,0,0,0,0
0.48,-0.22715,-0.86214,0.12272,0.059817,0.019215,-0.65311,0.75466,0.002889,0.0066292,0.00067078,-0.026709,-0.01622,0.055566,0,0.059903,0.019179,-0.6532,0.75457,-0.51057,0.87319,8.9596,1340,1200,1282,1257,0,0,0,0
0.49,-0.22717,-0.86212,0.12271,0.059809,0.019222,-0.6531,0.75466,0.0031308,0.0065518,0.00086716,-0.031113,-0.018091,0.062127,0,0.059809,0.019221,-0.6531,0.75466,-0.9905,1.9516,9.8492,1340,1200,1284.9,1254.1,0,0,0,0
0.5,-0.22718,-0.86209,0.12269,0.059806,0.019228,-0.6531,0.75466,0.0036292,0.0064746,0.00068407,-0.030694,-0.017326,0.061271,0,0.0598,0.019245,-0.65311,0.75465,-1.3283,1.2976,10.302,1340,1200,1286,1253,0,0,0,0
0.51,-0.22719,-0.86207,0.12268,0.059804,0.019235,-0.6531,0.75466,0.0045495,0.0063852,0.00017516,-0.029522,-0.015155,0.058791,0,0.059797,0.019256,-0.65313,0.75463,-1.4995,0.44635,10.508,1340,1200,1286.7,1252.3,0,0,0,0
0.52,-0.2272,-0.86205,0.12266,0.059802,0.019241,-0.65311,0.75465,0.0057123,0.0062922,-0.00054277,-0.027896,-0.012011,0.055138,0,0.059806,0.019251,-0.65316,0.75461,-1.5,0.23617,10.483,1340,1200,1287,1252,0,0,0,0
0.53,-0.22721,-0.86203,0.12264,0.0598,0.019247,-0.65312,0.75465,0.0069374,0.0062044,-0.0013529,-0.026111,-0.0083206,0.050754,0,0.059833,0.019234,-0.65318,0.75459,-1.4993,0.065696,10.4,1340,1200,1286.5,1252.5,0,0,0,0
0.54,-0.22722,-0.86201,0.12263,0.059799,0.019252,-0.65313,0.75464,0.0080451,0.0061303,-0.0021383,-0.024458,-0.0045142,0.046079,0,0.059867,0.019213,-0.6532,0.75457,-1.498,-0.067634,10.268,1340,1200,1285.3,1253.7,0,0,0,0
0.55,-0.22723,-0.862,0.12261,0.059798,0.019255,-0.65313,0.75463,0.0088551,0.0060786,-0.0027821,-0.023231,-0.0010205,0.041556,0,0.059902,0.019192,-0.65322,0.75455,-1.4959,-0.16341,10.091,1340,1200,1283.8,1255.2,0,0,0,0
0.56,-0.22724,-0.86198,0.12259,0.059797,0.019256,-0.65314,0.75463,0.0091875,0.0060581,-0.0031675,-0.022722,0.0017314,0.037624,0,0.05993,0.019175,-0.65324,0.75453,-1.493,-0.22121,9.8774,1340,1200,1282.5,1256.5,0,0,0,0
0.57,-0.22726,-0.86197,0.12258,0.059796,0.019256,-0.65314,0.75463,0.009132,0.0060658,-0.0033615,-0.022883,0.0039505,0.034244,0,0.05994,0.019168,-0.65327,0.75451,-1.4891,-0.24064,9.6318,1340,1200,1282,1257,0,0,0,0
0.58,-0.22727,-0.86195,0.12256,0.059795,0.019253,-0.65314,0.75463,0.0089625,0.0060899,-0.0035445,-0.023371,0.0062329,0.030972,0,0.059925,0.019168,-0.6533,0.75448,-1.0285,0.27901,9.0031,1340,1200,1282.5,1256.5,0,0,0,0
0.59,-0.22728,-0.86194,0.12254,0.059794,0.019249,-0.65314,0.75463,0.0086985,0.0061293,-0.0037163,-0.024131,0.0085439,0.027784,0,0.059897,0.019168,-0.65332,0.75446,-0.56119,0.91045,8.495,1340,1200,1283,1256,0,0,0,0
0.6,-0.22729,-0.86193,0.12253,0.059793,0.019244,-0.65314,0.75463,0.0083585,0.0061828,-0.0038765,-0.025109,0.010847,0.024654,0,0.059868,0.019159,-0.6533,0.75449,-0.56419,1.0952,8.5021,1340,1200,1283,1256,0,0,0,0
0.61,-0.22731,-0.86191,0.12251,0.059792,0.019238,-0.65314,0.75462,0.0079614,0.0062492,-0.0040243,-0.026252,0.013106,0.021557,0,0.059837,0.019141,-0.65324,0.75454,-0.57309,1.2224,8.5227,1340,1200,1283,1256,0,0,0,0
0.62,-0.22732,-0.8619,0.12249,0.059791,0.019231,-0.65314,0.75462,0.0075258,0.0063274,-0.0041592,-0.027506,0.015285,0.018467,0,0.059819,0.019132,-0.6532,0.75458,-0.58711,1.2708,8.5553,1340,1200,1283,1256,0,0,0,0
0.63,-0.22733,-0.86189,0.12248,0.059791,0.019223,-0.65315,0.75462,0.0070703,0.0064161,-0.0042806,-0.028816,0.017346,0.01536,0,0.059813,0.019136,-0.65317,0.75461,-0.65188,1.2183,8.6931,1340,1200,1283.5,1255.5,0,0,0,0
0.64,-0.22734,-0.86188,0.12246,0.05979,0.019215,-0.65315,0.75462,0.0066138,0.0065142,-0.0043879,-0.03013,0.019255,0.012212,0,0.059809,0.019146,-0.65314,0.75463,-0.79979,1.0946,9.0304,1340,1200,1284.4,1254.6,0,0,0,0
0.65,-0.22736,-0.86187,0.12244,0.05979,0.019207,-0.65315,0.75462,0.0061749,0.0066206,-0.0044805,-0.031394,0.020973,0.0089957,0,0.059808,0.019152,-0.65312,0.75464,-1.0038,0.95878,9.5548,1340,1200,1285,1254,0,0,0,0
0.66,-0.22737,-0.86186,0.12243,0.059789,0.019198,-0.65315,0.75462,0.0057722,0.0067341,-0.0045579,-0.032552,0.022466,0.0056874,0,0.059818,0.019133,-0.65317,0.75461,-1.3862,0.83421,11.127,1340,1200,1285,1254,0,0,0,0
0.67,-0.22738,-0.86185,0.12241,0.059789,0.019189,-0.65315,0.75462,0.0054246,0.0068535,-0.0046193,-0.033553,0.023697,0.0022619,0,0.059804,0.019115,-0.65317,0.75461,-1.6308,0.39968,10.661,1340,1200,1285.8,1253.2,0,0,0,0
0.68,-0.22739,-0.86184,0.12239,0.059788,0.019181,-0.65315,0.75462,0.0051506,0.0069776,-0.0046643,-0.034341,0.024628,-0.0013061,0,0.059794,0.019119,-0.65316,0.75461,-1.6605,0.16139,10.248,1340,1200,1287,1252,0,0,0,0
0.69,-0.2274,-0.86182,0.12238,0.059788,0.019173,-0.65315,0.75462,0.004969,0.0071053,-0.0046922,-0.034864,0.025225,-0.0050414,0,0.05979,0.019147,-0.65316,0.75461,-1.6206,0.049363,9.9951,1340,1200,1287.7,1251.3,0,0,0,0
0.7,-0.22741,-0.86181,0.12236,0.059788,0.019166,-0.65316,0.75462,0.0048985,0.0072355,-0.0047025,-0.035067,0.02545,-0.0089693,0,0.059788,0.019166,-0.65316,0.75462,-1.5703,0.0049686,9.8846,1340,1200,1288,1251,0,0,0,0
0.71,-0.22742,-0.8618,0.12234,0.059795,0.019158,-0.65317,0.75461,0.005029,0.0074166,-0.0046039,-0.03052,0.025374,-0.013564,0,0.059869,0.019134,-0.65321,0.75457,-1.5237,0.057535,10.026,1340,1200,1285.8,1253.2,0,0,0,0
0.72,-0.22742,-0.86179,0.12233,0.059813,0.019149,-0.65319,0.75458,0.0053977,0.0076849,-0.0043261,-0.017696,0.025141,-0.019087,0,0.059963,0.019097,-0.65327,0.7545,-1.4605,0.16726,10.192,1340,1200,1283,1256,0,0,0,0
0.73,-0.22743,-0.86178,0.12231,0.059839,0.01914,-0.65322,0.75455,0.0059053,0.0079959,-0.0039436,-1.0836e-05,0.024787,-0.02501,0,0.059958,0.0191,-0.65329,0.75449,-1.301,0.28579,9.9865,1340,1200,1283,1256,0,0,0,0
0.74,-0.22743,-0.86177,0.12229,0.059867,0.019131,-0.65326,0.75452,0.0064526,0.0083049,-0.0035312,0.019091,0.024347,-0.030803,0,0.059943,0.019107,-0.6533,0.75448,-1.0388,0.43083,9.4853,1340,1200,1283,1256,0,0,0,0
0.75,-0.22744,-0.86176,0.12227,0.059894,0.019124,-0.65329,0.7545,0.0069398,0.0085674,-0.003164,0.036165,0.023856,-0.035935,0,0.059928,0.019115,-0.65331,0.75448,-0.79323,0.59564,8.974,1340,1200,1283,1256,0,0,0,0
0.76,-0.22745,-0.86175,0.12226,0.059914,0.019119,-0.65331,0.75448,0.0072676,0.0087387,-0.0029169,0.04777,0.023348,-0.039876,0,0.059921,0.019118,-0.65331,0.75447,-0.68415,0.77336,8.7387,1340,1200,1283,1256,0,0,0,0
0.77,-0.22745,-0.86174,0.12224,0.059922,0.019118,-0.65331,0.75447,0.0073471,0.0087804,-0.0028561,0.050894,0.022854,-0.042174,0,0.059933,0.019091,-0.65329,0.75449,-0.69729,0.96386,8.7677,1340,1200,1282.1,1256.9,0,0,0,0
0.78,-0.22746,-0.86173,0.12222,0.059927,0.019118,-0.65331,0.75447,0.0073083,0.0087791,-0.0028676,0.051198,0.022302,-0.043896,0,0.059946,0.019063,-0.65327,0.75451,-0.72556,1.2024,8.8471,1340,1200,1281,1258,0,0,0,0
0.79,-0.22747,-0.86172,0.12219,0.059932,0.019118,-0.65331,0.75447,0.0072233,0.0087763,-0.0028931,0.05148,0.021668,-0.045545,0,0.059933,0.019093,-0.65327,0.75451,-0.76183,1.6674,9.4761,1340,1200,1281.5,1257.5,0,0,0,0
0.8,-0.22748,-0.86171,0.12217,0.059937,0.019118,-0.65331,0.75447,0.0070969,0.0087719,-0.0029317,0.051742,0.020959,-0.047121,0,0.059911,0.019126,-0.65327,0.75451,-0.82959,2.0176,10.181,1340,1200,1282.7,1256.3,0,0,0,0
0.81,-0.22749,-0.8617,0.12215,0.059941,0.019119,-0.65331,0.75448,0.0069342,0.0087659,-0.0029826,0.051983,0.020184,-0.048622,0,0.059901,0.019104,-0.65325,0.75452,-1.2887,1.5133,10.301,1340,1200,1283.9,1255.1,0,0,0,0
0.82,-0.2275,-0.8617,0.12213,0.059945,0.019119,-0.6533,0.75448,0.0067401,0.0087585,-0.0030448,0.052205,0.01935,-0.050048,0,0.059892,0.019078,-0.65323,0.75455,-1.7699,0.83601,10.351,1340,1200,1285.1,1253.9,0,0,0,0
0.83,-0.22751,-0.86169,0.1221,0.059949,0.019119,-0.6533,0.75448,0.0065194,0.0087495,-0.0031174,0.052409,0.018467,-0.051396,0,0.059878,0.01908,-0.6532,0.75457,-1.7727,0.68961,10.345,1340,1200,1286,1253,0,0,0,0
0.84,-0.22752,-0.86168,0.12208,0.059952,0.01912,-0.6533,0.75448,0.0062771,0.0087392,-0.0031995,0.052594,0.017543,-0.052667,0,0.059861,0.019087,-0.65316,0.75461,-1.7661,0.61712,10.318,1340,1200,1286.3,1252.7,0,0,0,0
0.85,-0.22753,-0.86167,0.12206,0.059955,0.01912,-0.6533,0.75448,0.006018,0.0087274,-0.0032902,0.052762,0.016586,-0.053859,0,0.059846,0.0191,-0.65313,0.75464,-1.7535,0.54843,10.267,1340,1200,1286.6,1252.4,0,0,0,0
0.86,-0.22754,-0.86167,0.12203,0.059958,0.019121,-0.65329,0.75449,0.0057472,0.0087143,-0.0033886,0.052913,0.015604,-0.05497,0,0.05984,0.019118,-0.65311,0.75465,-1.7335,0.41782,10.186,1340,1200,1287,1252,0,0,0,0
0.87,-0.22755,-0.86166,0.12201,0.059961,0.019122,-0.65329,0.75449,0.0054694,0.0086998,-0.0034937,0.053048,0.014607,-0.055999,0,0.059844,0.019196,-0.65314,0.75463,-1.5025,-0.017193,9.3069,1340,1200,1289,1250,0,0,0,0
0.88,-0.22756,-0.86165,0.12198,0.059963,0.019122,-0.65328,0.75449,0.0051897,0.008684,-0.0036048,0.053168,0.013601,-0.056946,0,0.059842,0.019154,-0.65319,0.75458,-1.4977,-0.17163,10.227,1340,1200,1289,1250,0,0,0,0
0.89,-0.22757,-0.86165,0.12196,0.059966,0.019123,-0.65328,0.7545,0.0049129,0.008667,-0.0037207,0.053273,0.012597,-0.057809,0,0.059842,0.019144,-0.65319,0.75458,-1.4775,-0.28283,10.327,1340,1200,1289,1250,0,0,0,0
0.9,-0.22758,-0.86164,0.12193,0.059968,0.019124,-0.65328,0.7545,0.0046439,0.0086487,-0.0038407,0.053364,0.011601,-0.058587,0,0.059845,0.019143,-0.65317,0.7546,-1.3886,-0.38928,10.069,1340,1200,1288.7,1250.3,0,0,0,0
0.91,-0.22759,-0.86163,0.12191,0.059969,0.019125,-0.65327,0.7545,0.0043877,0.0086292,-0.0039638,0.053442,0.010623,-0.059278,0,0.059852,0.019143,-0.65316,0.75461,-1.252,-0.4431,9.8929,1340,1200,1288.1,1250.9,0,0,0,0
